# time | -\Delta V/V_0 | P [kpa] | I_x [mm^4] | I_y [mm^4]
0.000000000000000000e+00 -0.000000000000000000e+00 0.000000000000000000e+00 6.046814144686647907e+00 1.505439690828856669e+02
5.750000011175870895e-03 1.123061153703445298e-06 -5.624048426966510306e-05 6.046800731508184867e+00 1.505436914783958287e+02
1.418749988079071045e-02 1.667313866652038226e-05 -8.128831154863291886e-04 6.046627495875277702e+00 1.505396696843209838e+02
2.178125083446502686e-02 5.978140910482955094e-05 -2.891474650823511183e-03 6.046149224362023844e+00 1.505285644353450891e+02
3.178124874830245972e-02 1.827998000951146283e-04 -8.819912181934341788e-03 6.044780346475572941e+00 1.504968500839933654e+02
4.178125038743019104e-02 4.089670385870853935e-04 -1.970921584870666265e-02 6.042258777654945234e+00 1.504385999881566534e+02
5.178124830126762390e-02 7.666188213818748943e-04 -3.690806624945253134e-02 6.038269276767840310e+00 1.503466632871944455e+02
6.178124994039535522e-02 1.281844722973209377e-03 -6.167515675770118833e-02 6.032503005810528229e+00 1.502144647807402009e+02
7.178124785423278809e-02 1.979092920784017613e-03 -9.517673606751486659e-02 6.024666807399924551e+00 1.500361512882705313e+02
8.178125321865081787e-02 2.880738248568852876e-03 -1.384887727908790112e-01 6.014460145384306067e+00 1.498066109966705994e+02
9.178125113248825073e-02 4.007514143011470936e-03 -1.925986725836992264e-01 6.001546162815058594e+00 1.495215699547627253e+02
1.017812490463256836e-01 5.378080697127252986e-03 -2.584064786788076162e-01 5.985489612556916583e+00 1.491779403560921935e+02
1.117812469601631165e-01 7.009629385499811620e-03 -3.367256140336394310e-01 5.965561207551351330e+00 1.487743630326083633e+02
1.217812523245811462e-01 8.917451117683418416e-03 -4.282817535568028688e-01 5.940074926734772554e+00 1.483134491726360977e+02
1.317812502384185791e-01 1.111519540616154496e-02 -5.337020265869796276e-01 5.902955071131012588e+00 1.478125636133473506e+02
1.417812556028366089e-01 1.361487036634686718e-02 -6.531876279041171074e-01 5.792070334112118246e+00 1.474664616604951277e+02
1.517812460660934448e-01 1.642718827385932640e-02 -6.964152562431991100e-01 7.846083706942316383e+00 1.405244720189325847e+02
1.617812514305114746e-01 1.956078806065048720e-02 -6.534957792609930038e-01 9.523960038855872057e+00 1.350485180246106722e+02
1.717812567949295044e-01 2.302309920819869266e-02 -6.279511726461350918e-01 1.074541849182528885e+01 1.309918826424320741e+02
1.817812472581863403e-01 2.682025535818955558e-02 -6.111034890636801720e-01 1.180687701376433552e+01 1.274554395691083926e+02
1.917812526226043701e-01 3.095674875523789227e-02 -6.015429971739649773e-01 1.278698149666481854e+01 1.241834982643448910e+02
2.017812430858612061e-01 3.543568941484626089e-02 -5.988531047478318214e-01 1.371679073635687729e+01 1.210606794983345367e+02
2.117812484502792358e-01 4.025897790204401722e-02 -6.022182060405611992e-01 1.460145533462559264e+01 1.180738828509803113e+02
2.217812538146972656e-01 4.542713255274823808e-02 -6.109966197982430458e-01 1.544966955145596543e+01 1.151938635150506371e+02
2.317812442779541016e-01 5.093954864172232921e-02 -6.246931734494864941e-01 1.627118281613647000e+01 1.123810465882350513e+02
2.417812496423721313e-01 5.679441199325645229e-02 -6.429509958252310753e-01 1.707076788233070275e+01 1.096143489105489266e+02
2.517812550067901611e-01 6.298861259184804218e-02 -6.655282923020422459e-01 1.785090455888679628e+01 1.068824790014643611e+02
2.617812454700469971e-01 6.951809013947987670e-02 -6.922729080542922020e-01 1.861318994016021477e+01 1.041777307351164552e+02
2.717812359333038330e-01 7.637757488766148961e-02 -7.230998598970472813e-01 1.935863676404387945e+01 1.014946388691860193e+02
2.817812561988830566e-01 8.356084680538775067e-02 -7.579720695503056049e-01 2.008781062817714158e+01 9.882950351672681677e+01
2.917812466621398926e-01 9.106082196845839694e-02 -7.968849386088550091e-01 2.080094482141915790e+01 9.618005193274406395e+01
3.017812371253967285e-01 9.886929339151942497e-02 -8.398532518185675144e-01 2.149799732790078011e+01 9.354518718251141252e+01
3.117812573909759521e-01 1.069771038067021673e-01 -8.869005832821130753e-01 2.217868554873054876e+01 9.092484358468360028e+01
3.217812478542327881e-01 1.153745776102208936e-01 -9.380506235174834728e-01 2.284251277415035020e+01 8.831986955428945407e+01
3.317812383174896240e-01 1.240508297478166155e-01 -9.933460969477891922e-01 2.348854475233515515e+01 8.573281810278390935e+01
3.417812585830688477e-01 1.329944568293132678e-01 -1.052742009051144123e+00 2.411653615133023365e+01 8.316495159961343120e+01
3.517812490463256836e-01 1.421933643499786737e-01 -1.116247265599668026e+00 2.472522506376217777e+01 8.061985149635573578e+01
3.617812395095825195e-01 1.516345075225659644e-01 -1.183827989734709263e+00 2.531354677766921313e+01 7.810108424075812650e+01
3.717812597751617432e-01 1.613044960025502017e-01 -1.255426090210676193e+00 2.588040380488419601e+01 7.561256196367052951e+01
3.817812502384185791e-01 1.711891619415308319e-01 -1.330958330072462559e+00 2.642470263693879318e+01 7.315836786177747797e+01
3.917812407016754150e-01 1.812739055445097280e-01 -1.410315628163516521e+00 2.694536383739492535e+01 7.074256896746003065e+01
4.017812609672546387e-01 1.915435222912520996e-01 -1.493364106863737106e+00 2.744138546223364017e+01 6.836902581970062442e+01
4.117812514305114746e-01 2.019823757149256105e-01 -1.579947536811232567e+00 2.791182043689721226e+01 6.604122085617360938e+01
4.217812418937683105e-01 2.125744837914199104e-01 -1.669891644269227982e+00 2.835568286371105629e+01 6.376171769543778112e+01
4.280312359333038330e-01 2.192650774199484121e-01 -1.727739931084215641e+00 2.861928404815206051e+01 6.236217734032372562e+01
4.336562454700469971e-01 2.253288301460713849e-01 -1.780798891559243202e+00 2.884516390665378083e+01 6.111367343000705432e+01
4.378750026226043701e-01 2.299011576600761830e-01 -1.821001642383635044e+00 2.900299209716127180e+01 6.017137969304236833e+01
4.410390555858612061e-01 2.333432537068577117e-01 -1.850389759056270123e+00 2.910658897156087477e+01 5.945418715195523163e+01
4.457851648330688477e-01 2.385258353739210524e-01 -1.836018287576735020e+00 2.901985337888642391e+01 5.888140446638408321e+01
