# time | -\Delta V/V_0 | P [kpa] | I_x [mm^4] | I_y [mm^4]
0.000000000000000000e+00 -0.000000000000000000e+00 0.000000000000000000e+00 2.775609700737698304e+01 3.371913005834280170e+02
5.750000011175870895e-03 1.152573801029340507e-06 -6.906012828267193981e-05 2.775604488023015293e+01 3.371906380530479623e+02
1.418749988079071045e-02 1.809540867616064671e-05 -9.995051186706405133e-04 2.775536342648406674e+01 3.371812484372047720e+02
2.178125083446502686e-02 6.465939023774601294e-05 -3.555844159564003348e-03 2.775347222988149909e+01 3.371552986961555121e+02
3.178124874830245972e-02 1.980121790168407265e-04 -1.084776431525824592e-02 2.774808723819575462e+01 3.370811144121948928e+02
4.178125038743019104e-02 4.430493691156785533e-04 -2.424427293590269983e-02 2.773823787397516583e+01 3.369446804432325280e+02
5.178124830126762390e-02 8.304294236416399303e-04 -4.541077578323893249e-02 2.772279593924193719e+01 3.367289168637536250e+02
6.178124994039535522e-02 1.388620915480149503e-03 -7.590767199872061610e-02 2.770086596014024138e+01 3.364176296127691899e+02
7.178124785423278809e-02 2.143902527294676286e-03 -1.171901458292268217e-01 2.767190518817441358e+01 3.359953509885809808e+02
8.178125321865081787e-02 3.120708823667042806e-03 -1.706130424281582236e-01 2.763601847790138066e+01 3.354466206753465372e+02
9.178125113248825073e-02 4.341399736337217020e-03 -2.374345640419051051e-01 2.759482224909368853e+01 3.347538538938053421e+02
1.017812490463256836e-01 5.826260564203316651e-03 -3.188150003552436829e-01 2.755442033659355516e+01 3.338897136530928833e+02
1.117812469601631165e-01 7.593732488081810818e-03 -4.157775838393718004e-01 2.754177785791734223e+01 3.327761297464383574e+02
1.217812523245811462e-01 9.660527828087624863e-03 -5.274802097119390965e-01 2.789346952365445631e+01 3.305585176917085164e+02
1.317812502384185791e-01 1.204139952887393374e-02 -5.751088028773665428e-01 2.363735597319937654e+01 3.401083373109102013e+02
1.417812556028366089e-01 1.474948693177247257e-02 -5.525236483663320541e-01 2.120276117355447809e+01 3.451992125672990142e+02
1.517812460660934448e-01 1.779620051741342968e-02 -5.153074162080883980e-01 2.576188388506551163e+01 3.316084181892234710e+02
1.592812538146972656e-01 2.030904191841759882e-02 -4.871438140980899334e-01 2.843200604660265896e+01 3.238706994664221384e+02
1.667812466621398926e-01 2.302139384437994554e-02 -4.800087481271475554e-01 2.949710058554540382e+01 3.202601260863694961e+02
1.767812520265579224e-01 2.695293833707113063e-02 -4.792965191882103682e-01 3.052073480205567080e+01 3.160452657354845769e+02
1.830312460660934448e-01 2.959532903331099640e-02 -4.799063317477703094e-01 3.137677119793943703e+01 3.124663204435076977e+02
1.886562556028366089e-01 3.209641418154466491e-02 -4.788057412952184677e-01 3.264650516983462580e+01 3.074067097869378813e+02
1.970937550067901611e-01 3.606789535644151778e-02 -4.645904118660837412e-01 3.693870839314299559e+01 2.913187065985354138e+02
2.055312544107437134e-01 4.030441087688506341e-02 -4.296248371247202158e-01 4.734571305782472450e+01 2.566788086797305368e+02
2.139687538146972656e-01 4.480676754453602473e-02 -4.198902170173823833e-01 5.376703974489334570e+01 2.355482212915196101e+02
2.224062532186508179e-01 4.957513824546456310e-02 -4.199370159767568111e-01 5.606827149085159334e+01 2.272546858982540527e+02
2.308437526226043701e-01 5.460900432146020833e-02 -4.215410735923796892e-01 5.731399599586646332e+01 2.222976961822663213e+02
2.392812520265579224e-01 5.990709794134183031e-02 -4.253092338331043720e-01 5.871198958169140525e+01 2.168313905093190215e+02
2.492812573909759521e-01 6.652592587982297800e-02 -4.324274777900427580e-01 6.056570069641151122e+01 2.096817378699948904e+02
2.592812478542327881e-01 7.350919765418958973e-02 -4.421990888658910990e-01 6.241885573436960044e+01 2.024919534437523225e+02
2.692812383174896240e-01 8.085155379626690619e-02 -4.545236297417432070e-01 6.422414216646323837e+01 1.954111977155708644e+02
2.792812585830688477e-01 8.854648226407908773e-02 -4.693431255873292685e-01 6.598256849591776074e+01 1.884319479093320808e+02
2.892812490463256836e-01 9.658643369922940980e-02 -4.866378440055996180e-01 6.769653328830597161e+01 1.815411919341124189e+02
2.992812395095825195e-01 1.049629366842803058e-01 -5.064131692051887512e-01 6.936530402484586944e+01 1.747379903539770112e+02
3.092812597751617432e-01 1.136663095993031142e-01 -5.286920350044965744e-01 7.098730577644661821e+01 1.680258044878574708e+02
3.192812502384185791e-01 1.226861792800885698e-01 -5.535086384043097496e-01 7.256099996695544974e+01 1.614090554037173320e+02
3.292812407016754150e-01 1.320111352460064946e-01 -5.809033173136413097e-01 7.408490702242723103e+01 1.548930315536856597e+02
3.392812609672546387e-01 1.416289025860759387e-01 -6.109175155870616436e-01 7.555751120961649292e+01 1.484841011180811847e+02
3.492812514305114746e-01 1.515264572163452506e-01 -6.435896502807736397e-01 7.697720250998436597e+01 1.421897798445887133e+02
3.592812418937683105e-01 1.616901411372722308e-01 -6.789506296627223492e-01 7.834239168162319800e+01 1.360184407231507180e+02
3.692812621593475342e-01 1.721054319189639081e-01 -7.170467288233339787e-01 7.965146050270971045e+01 1.299806399560851276e+02
3.792812526226043701e-01 1.827571732159367635e-01 -7.578299846500158310e-01 8.090462550485020188e+01 1.240819095949476036e+02
3.892812430858612061e-01 1.936296900244968144e-01 -8.013076148927211761e-01 8.209987475147386249e+01 1.183326493175560046e+02
3.992812633514404297e-01 2.047066157966693778e-01 -8.474404457956552505e-01 8.323633458808134833e+01 1.127410069972616782e+02
4.092812538146972656e-01 2.159711805836495302e-01 -8.961624116636812687e-01 8.431350494149366170e+01 1.073141184570232269e+02
4.192812442779541016e-01 2.274061534071118995e-01 -9.473805548623204231e-01 8.533127199872144786e+01 1.020579754177096987e+02
4.292812645435333252e-01 2.389937270018305249e-01 -1.000975375063717365e+00 8.628998094385859474e+01 9.697715276093849468e+01
4.392812550067901611e-01 2.507158635878193320e-01 -1.056804205290973186e+00 8.719048180461551567e+01 9.207478301057017234e+01
4.492812454700469971e-01 2.625542372416419523e-01 -1.114707789383828640e+00 8.803422183136201795e+01 8.735254994087419789e+01
4.592812359333038330e-01 2.744900033816515261e-01 -1.174518954940140247e+00 8.882331816664124347e+01 8.281085196792983538e+01
4.692812561988830566e-01 2.865043750548913470e-01 -1.236072741448879242e+00 8.956080980512066958e+01 7.844916920543390404e+01
4.792812466621398926e-01 2.985781042788841488e-01 -1.299216761253774166e+00 9.025243488799436875e+01 7.426687465292654622e+01
4.817812442779541016e-01 3.016036105065861284e-01 -1.315272296778857708e+00 9.041539630996835797e+01 7.324834303614076703e+01
4.855312407016754150e-01 3.061458462277527048e-01 -1.339454669505357742e+00 9.065448261294140764e+01 7.174260749658324698e+01
4.911562502384185791e-01 3.129663169527239774e-01 -1.376083353534340858e+00 9.101344302317941981e+01 6.953323115898747631e+01
4.964296817779541016e-01 3.193655219534189404e-01 -1.410700730048120022e+00 9.135486099571650698e+01 6.751879589030647821e+01
5.011757612228393555e-01 3.251264892117939898e-01 -1.437827944755554199e+00 9.181988702158362514e+01 6.588608576516469384e+01
5.059219002723693848e-01 3.308869954406485347e-01 -1.407867181114852428e+00 9.235365523614059668e+01 6.554910940407438602e+01
