time Volume Pressure Energy Extension Bending-normals Twist
0.0 6544.60302734 0.0 9.47843589911e-15 1.0 0.0 0.0
0.00200000009499 6544.60302734 -1.31522703839e-09 1.89717152036e-13 1.00000393956 0.0 0.0
0.00575000001118 6544.59570312 -2.82218053371e-08 1.00197093678e-10 1.00000393955 0.0 0.0
0.00912499986589 6544.57373047 -1.10371196627e-07 1.58376800563e-09 1.00000393956 0.0 0.0
0.0141874998808 6544.49365234 -4.07785790912e-07 2.20322302624e-08 1.00000393956 0.0 0.0
0.0217812508345 6544.21044922 -1.45040735333e-06 2.81903226096e-07 1.00000393959 0.0 0.0
0.0331718735397 6543.24023438 -5.01739805259e-06 3.39708776664e-06 1.00000382562 2.10734242554e-08 0.0
0.0502578131855 6539.98681641 -1.69594186445e-05 3.89784399886e-05 0.999999380141 8.94069671631e-08 0.0
0.0758867189288 6529.33691406 -5.6030232372e-05 0.000426397571573 0.999977494734 3.17503150592e-07 5.37269007484e-08
0.114330075681 6495.52392578 -0.000175770532223 0.00440293783322 0.999565883636 7.43267769417e-07 4.55873258191e-06
0.152773439884 6434.71289062 -0.000162502008607 0.0147708104923 0.999109929938 4.46577633072e-06 2.94169566985e-05
0.162384271622 6414.75976562 -0.000156608221005 0.0179171785712 0.998889824641 1.09502549497e-05 3.23595484286e-05
0.17199511826 6392.80859375 -0.000152525724843 0.0212373938411 0.998686672119 0.00140469089522 3.44669012274e-05
0.181605949998 6368.82519531 -0.000150182138896 0.0247881989926 0.998383984837 0.00285713501759 3.55039295661e-05
0.191216796637 6342.78222656 -0.000149658779264 0.0286498703063 0.998094315481 0.00359245121134 3.71176708941e-05
0.200827643275 6314.66210938 -0.000148723251186 0.0327952504158 0.997806147733 0.00320321704523 3.99946999914e-05
0.210438475013 6284.45214844 -0.000147455357364 0.037170663476 0.997534585799 0.00146979816132 4.32354617808e-05
0.220049321651 6252.14892578 -0.000148450810229 0.0418765023351 0.997140189879 4.14889646328e-06 4.60581707405e-05
0.234465569258 6199.77685547 -0.000152004169649 0.0496593117714 0.996560961745 0.000369009841468 5.01997208897e-05
0.248881831765 6142.73974609 -0.000157062895596 0.0583780743182 0.995947324942 0.000135539151269 5.47798931269e-05
0.263298094273 6081.10791016 -0.000163471500855 0.0681528896093 0.995240116543 3.06739597853e-06 5.97590889417e-05
0.284922480583 5980.2734375 -0.000175481458427 0.0850616544485 0.994128257663 6.91606539983e-06 6.78492790996e-05
0.317359060049 5811.11914062 -0.000199210961 0.11639906466 0.992112515906 9.157633454e-06 8.09292147779e-05
0.366013944149 5521.51025391 -0.000249518285273 0.180561900139 0.988189606216 1.25234663687e-05 0.000101621115723
0.378513932228 5441.10595703 -0.000265534588834 0.201106518507 0.986969587056 1.29892662281e-05 0.000107088183763
0.397263944149 5316.61572266 -0.000291833217489 0.235532611609 0.985047170621 1.38672579092e-05 0.00011517165428
0.425388932228 5122.46044922 -0.000336258584866 0.29603049159 0.981615889006 1.55322859665e-05 0.000113017918777
0.435935825109 5047.77050781 -0.000354331161361 0.321642488241 0.980265923334 1.62160513132e-05 3.80897494434e-05
0.451756119728 4934.22900391 -0.000382654950954 0.363185733557 0.978159643583 1.72914990422e-05 0.000196201810706
0.457688748837 4891.26367188 -0.0003936450521 0.379744470119 0.977248647412 1.77110565808e-05 0.000519148190416
0.466587662697 4826.49658203 -0.000410425564041 0.405594587326 0.975945074174 1.84035554486e-05 0.000701484895763
0.475486606359 4761.41894531 -0.000427575636422 0.432657390833 0.974591800831 1.91607958945e-05 0.00163243570188
0.48438552022 4696.11328125 -0.000445050973212 0.460928440094 0.973229746955 2.01308786742e-05 0.00196347321184
0.486610263586 4679.76074219 -0.00044945027912 0.468159019947 0.972818018907 2.03610177588e-05 0.00352907836491
0.48883497715 4663.40087891 -0.000453770946478 0.475410491228 0.972493491547 2.05206465569e-05 0.00629728143312
0.492172092199 4638.84863281 -0.000459210830741 0.485673874617 0.971707878387 1.99437666925e-05 0.0183906360553
0.495509177446 4614.28662109 -0.000457342655864 0.49108043313 0.97002836543 1.60783460233e-05 0.0494124213361
0.498846292496 4589.71826172 -0.000430014566518 0.485462933779 0.965393358535 7.59324926384e-06 0.101985764292
0.50134909153 4571.29052734 -0.000386342260754 0.481140494347 0.960331239638 2.9717264388e-06 0.145812411666
0.503851950169 4552.86376953 -0.000333433999913 0.484900504351 0.955049295139 7.165676989e-06 0.183391321013
0.506354749203 4534.44042969 -0.000294306577416 0.49404835701 0.95085035596 1.13769950981e-05 0.207510549818
0.508857548237 4516.02148438 -0.000282109424006 0.501903891563 0.948822213219 1.42937636293e-05 0.216779347464
0.511360406876 4497.60888672 -0.000294546684017 0.506645143032 0.948563684502 1.60403092684e-05 0.214370811662
0.51386320591 4479.20507812 -0.000320464838296 0.510674536228 0.949565526628 1.67852701429e-05 0.205491630668
0.516366064548 4460.81152344 -0.000348040281096 0.516097426414 0.950783206569 1.67910103474e-05 0.19525572391
0.5201202631 4433.24414062 -0.000373792863684 0.526333510876 0.951430375236 1.62435370352e-05 0.187065725556
0.523874521255 4405.70996094 -0.000381660240237 0.536412358284 0.950670471869 1.57064742203e-05 0.188663826079
0.527628719807 4378.21582031 -0.000377370801289 0.545673787594 0.948830415373 1.50764408419e-05 0.197446879439
0.531382977962 4350.76660156 -0.000368558889022 0.554835557938 0.946544152321 1.39628412684e-05 0.208804494205
0.535137236118 4323.37011719 -0.000361604092177 0.56429618597 0.944518923896 1.21332058784e-05 0.21901028502
0.540768563747 4282.38525391 -0.000360913574696 0.578802287579 0.942111268486 8.27989830011e-06 0.229020002493
0.546399891376 4241.55224609 -0.000365639600204 0.593404054642 0.940170283191 6.22911314888e-06 0.23620573768
0.55203127861 4200.890625 -0.000370744528482 0.608063697815 0.938242635463 9.78766980749e-06 0.243222426785
0.557662606239 4160.42138672 -0.00037424947368 0.622733771801 0.936094249661 1.60211808001e-05 0.251094590124
0.563293993473 4120.16503906 -0.000376493408112 0.637398123741 0.933927112679 2.28205141681e-05 0.259638715651
0.568925321102 4080.14086914 -0.000378405995434 0.652065694332 0.931632479045 2.95137350581e-05 0.268376097819
0.574556648731 4040.36938477 -0.000380539218895 0.666740000248 0.929464656711 3.57431429834e-05 0.277033993101
0.580188035965 4000.87036133 -0.000382934871595 0.681412816048 0.927156684339 4.12414934961e-05 0.285581865302
0.585819363594 3961.66308594 -0.000385446299333 0.696073532104 0.924948450318 4.5819062003e-05 0.294089100457
0.591450750828 3922.7668457 -0.000387947278796 0.710711181164 0.922687324085 4.93490059382e-05 0.3026119755
0.597082078457 3884.20092773 -0.000390399276512 0.72531580925 0.920374616393 5.17633310974e-05 0.311164151996
0.602713406086 3845.98413086 -0.000392816815292 0.739878475666 0.918183760514 5.30259281528e-05 0.319733418358
0.604121267796 3836.48657227 -0.000393409660319 0.743503689766 0.917600938048 5.32714449501e-05 0.321876536554
0.60693693161 3817.56152344 -0.000394606380723 0.7507558465 0.916426914581 5.35404548649e-05 0.326162750483
0.609048724174 3803.43017578 -0.000395508832298 0.756190776825 0.915559120607 5.35299903799e-05 0.329376411931
0.611160457134 3789.35327148 -0.000396405404899 0.761613667011 0.914675880951 5.33585177848e-05 0.332588706777
0.613272190094 3775.33203125 -0.000397304072976 0.767027199268 0.913873173915 5.30327114241e-05 0.335798991853
0.615383982658 3761.3671875 -0.000398203672376 0.772430956364 0.912946333346 5.25567736624e-05 0.339006773554
0.617495715618 3747.4597168 -0.000399101554649 0.777824223042 0.91211227901 5.19317461143e-05 0.342211718034
0.619607508183 3733.61083984 -0.000400001968956 0.783207058907 0.911312933952 5.11670595716e-05 0.345413979802
0.620135426521 3730.15771484 -0.000400211312808 0.784546613693 0.911011491238 5.09641149192e-05 0.346214401458
0.622247159481 3716.3828125 -0.000401117518777 0.789913892746 0.910192939018 5.0074872746e-05 0.349414295044
0.624358952045 3702.66821289 -0.000402009231038 0.795269548893 0.909341785942 4.90572388888e-05 0.35261127965
0.626470685005 3689.01489258 -0.00040289844037 0.80061262846 0.90843996475 4.79070594342e-05 0.355805401456
0.628054499626 3678.81567383 -0.000403563492 0.804611325264 0.907798037446 4.69665264895e-05 0.358199129509
0.630166292191 3665.27197266 -0.000404446385801 0.809930503368 0.906994986922 4.5616667538e-05 0.361388086784
0.63227802515 3651.79199219 -0.000405327009503 0.815236032009 0.90606483921 4.41631202499e-05 0.364573687667
0.63438975811 3638.37646484 -0.00040620128857 0.82052731514 0.905234716137 4.26082230439e-05 0.367755391004
0.636501550674 3625.02636719 -0.000407078652643 0.825802981853 0.904427846644 4.09696472562e-05 0.3709327637
0.638085365295 3615.05761719 -0.000407726736739 0.829749643803 0.903773266166 3.96873679148e-05 0.373312712821
0.640197098255 3601.82421875 -0.000408599502407 0.834997415543 0.902848532368 3.79205012412e-05 0.37648147544
0.64230889082 3588.65893555 -0.000409460626543 0.840228796005 0.902040066729 3.60957062577e-05 0.379644762345
0.644420623779 3575.56225586 -0.000410324457334 0.845442891121 0.901143317024 3.42183421089e-05 0.382802074094
0.6460044384 3565.78515625 -0.000410975713748 0.849342226982 0.900495632538 3.27864219285e-05 0.385165879042
0.648116230965 3552.81079102 -0.000411828805227 0.854524970055 0.899650918453 3.08528101721e-05 0.388311878578
0.650227963924 3539.90722656 -0.000412689172663 0.859689116478 0.898856131217 2.89056871456e-05 0.39145119683
0.652339696884 3527.07568359 -0.000413538829889 0.864834845066 0.897923816831 2.69543018506e-05 0.394583815258
0.654451489449 3514.31665039 -0.000414385925978 0.869960129261 0.897104977954 2.50153795545e-05 0.397709660155
0.65603530407 3504.79541016 -0.000415010581492 0.873791635036 0.896469946259 2.35807097611e-05 0.400049429209
0.658147037029 3492.1652832 -0.000415854243329 0.87888109684 0.895660397432 2.17045323655e-05 0.403162543313
0.660258829594 3479.60986328 -0.000416683586081 0.883951365948 0.894742217742 1.98909014088e-05 0.406267595686
0.66204059124 3469.07519531 -0.00041735090781 0.888208329678 0.894041984365 1.84248745687e-05 0.408880893923
0.664267838001 3455.98291016 -0.000418257142883 0.893515706062 0.89321761699 1.66985180854e-05 0.412138537511
0.666049659252 3445.57080078 -0.000418958574301 0.897740721703 0.892471161415 1.54302369592e-05 0.414737063842
0.668276906013 3432.63330078 -0.00041981699178 0.90300065279 0.891549562116 1.40121950329e-05 0.417975556722
0.67005866766 3422.34594727 -0.000420506577939 0.907189786434 0.890861183763 1.30449772903e-05 0.42055846204
0.672285914421 3409.56616211 -0.000421364617068 0.912402689457 0.890008433651 1.2085255132e-05 0.42377697112
0.674067735672 3399.40600586 -0.000422053824877 0.91655343771 0.88925035157 1.1537175338e-05 0.42634347637
0.676294982433 3386.78637695 -0.000422892800998 0.921719133854 0.888387000703 1.11520433732e-05 0.429541026349
0.67807674408 3376.75561523 -0.00042357534403 0.925831675529 0.88770392318 1.10782492235e-05 0.432090475357
0.680303990841 3364.29907227 -0.000424407509854 0.930946528912 0.886822676422 1.12566807908e-05 0.435266270875
0.682085812092 3354.3996582 -0.00042507465696 0.935018539429 0.886095599607 1.15743372731e-05 0.437797681168
0.684313058853 3342.10864258 -0.000425902515417 0.940082788467 0.885251114357 1.21450954247e-05 0.440949870289
0.686094820499 3332.34277344 -0.000426568818511 0.944112598896 0.884575560573 1.27023812149e-05 0.443461770004
0.688322067261 3320.2199707 -0.000427379098255 0.949124932289 0.88370839205 1.34652749983e-05 0.446589038312
0.690103888512 3310.58935547 -0.000428042723797 0.953112602234 0.882987812992 1.41057259984e-05 0.449080631777
0.692331135273 3298.63696289 -0.000428853672929 0.958070278168 0.882147147119 1.49090865042e-05 0.452181785654
0.694112896919 3289.14404297 -0.000429498235462 0.962014377117 0.881479174106 1.55362453655e-05 0.454651736093
0.696340143681 3277.36425781 -0.000430286105257 0.966916918755 0.880666378744 1.62815354216e-05 0.45772502158
0.69801056385 3268.59326172 -0.000430894026067 0.970570921898 0.880026618189 1.68021148497e-05 0.46001977353
0.700015127659 3258.140625 -0.000431608845247 0.974935770035 0.879203279368 1.73752012369e-05 0.462761171488
0.702270209789 3246.47631836 -0.000432398315752 0.97981351614 0.87837868679 1.79440795316e-05 0.465829137935
0.70414942503 3236.83349609 -0.000433067820268 0.98385310173 0.877693502267 1.83535733875e-05 0.468372295786
0.70602864027 3227.26147461 -0.000433715293184 0.987868607044 0.877013732361 1.86995621179e-05 0.470903214106
0.708283722401 3215.86889648 -0.000434509769548 0.992656171322 0.876112483261 1.90248325185e-05 0.473924160506
0.710162997246 3206.45385742 -0.000435152440332 0.996619999409 0.875414019633 1.92223593244e-05 0.476428006141
0.712042212486 3197.11083984 -0.000435799302068 1.00055849552 0.874728265847 1.93531150785e-05 0.478919188758
0.714297294617 3185.99462891 -0.00043656444177 1.00525271893 0.873941005807 1.94260512565e-05 0.481891453696
0.716176509857 3176.8112793 -0.000437183567556 1.00913739204 0.873273376557 1.94156812527e-05 0.484353608006
0.718055784702 3167.70092773 -0.000437820272055 1.01299703121 0.872608312266 1.93420516297e-05 0.486802069022
0.720310866833 3156.86572266 -0.000438569346443 1.01759457588 0.871719945116 1.91800810177e-05 0.489721704033
0.722190082073 3147.91748047 -0.000439181079855 1.02139723301 0.871046503021 1.89897863266e-05 0.4921389862
0.724069356918 3139.04345703 -0.000439806142822 1.02517449856 0.87037955841 1.87457555429e-05 0.494541589819
0.726324439049 3128.49291992 -0.000440529576736 1.02967202663 0.869611677577 1.8405835651e-05 0.497405198398
0.728203654289 3119.78320312 -0.000441136449808 1.03339087963 0.868956873122 1.80836258582e-05 0.499775168038
0.73008286953 3111.1484375 -0.000441738142399 1.03708302975 0.868306913261 1.77379782647e-05 0.502130149537
0.73233795166 3100.88671875 -0.000442456017481 1.041477561 0.867537380232 1.73077356109e-05 0.504936165037
0.734011650085 3093.34082031 -0.000442991353339 1.04471039772 0.8669745645 1.69898071065e-05 0.507004769144
0.736245155334 3083.36547852 -0.000443680270109 1.04899716377 0.866137892693 1.65802187984e-05 0.509745623655
0.738051235676 3075.37768555 -0.000444248347776 1.05243301392 0.865525720463 1.62748105889e-05 0.511945269264
0.740158379078 3066.14794922 -0.000444894452812 1.05640864372 0.864802011153 1.59723071633e-05 0.514492507351
0.742279589176 3056.95385742 -0.000445540732471 1.06037378311 0.864097224172 1.57449225896e-05 0.517036078427
0.744029700756 3049.44262695 -0.000446059508249 1.06361949444 0.863508761858 1.56331291392e-05 0.519118724529
0.746279835701 3039.88354492 -0.000446740974439 1.06775450706 0.862782602429 1.5607726909e-05 0.52177496595
0.748208522797 3031.77880859 -0.000447311991593 1.07126545906 0.862150882005 1.57067993711e-05 0.524032583508
0.750137209892 3023.75585938 -0.000447870144853 1.07474517822 0.861523379215 1.59300173603e-05 0.526272259797
0.752065896988 3015.81518555 -0.000448438309832 1.07819414139 0.860898726238 1.62807716859e-05 0.52849369628
0.754316031933 3006.65527344 -0.000449089246104 1.08217763901 0.860200323454 1.68502288614e-05 0.531061859871
0.756244719028 2998.89331055 -0.000449624843895 1.08555817604 0.859583592832 1.74785856943e-05 0.533242843581
0.758173406124 2991.21411133 -0.00045016745571 1.08890652657 0.858971991731 1.82212261855e-05 0.535404878564
0.76010209322 2983.61791992 -0.000450715568149 1.09222245216 0.858363525319 1.90700517672e-05 0.537547875438
0.762030780315 2976.10473633 -0.0004512500891 1.09550666809 0.857760815402 2.00127976047e-05 0.539671633906
0.76428091526 2967.44482422 -0.000451852276456 1.09929680824 0.857083329726 2.12233446868e-05 0.542124628231
0.766209602356 2960.11254883 -0.000452380947536 1.10251021385 0.856488314072 2.23341514995e-05 0.544205758898
0.76801776886 2953.31420898 -0.000452866137493 1.10549032688 0.855925556926 2.34301510668e-05 0.546138946635
0.770019412041 2945.87426758 -0.000453395332443 1.10875833035 0.8553218213 2.4689070216e-05 0.54825857793
0.772125482559 2938.14379883 -0.000453905086033 1.11215627193 0.854698821843 2.60568438456e-05 0.550464974275
0.774445354939 2929.74389648 -0.000454543391243 1.11585521698 0.854030797301 2.75982056767e-05 0.552866136142
0.776146352291 2923.66259766 -0.000454980996437 1.11853528023 0.85351739682 2.87441893097e-05 0.554607968151
0.778002560139 2917.10058594 -0.000455452420283 1.12143039703 0.852984960535 3.00006673686e-05 0.556490885041
0.780011296272 2910.08740234 -0.000455955858342 1.12452733517 0.852426421126 3.13601017759e-05 0.558507192321
0.782005190849 2903.21630859 -0.000456444860902 1.12756502628 0.851909259425 3.27026547678e-05 0.5604865304
0.784112155437 2896.0534668 -0.000456962327007 1.13073503971 0.851334590668 3.41074266738e-05 0.562553348939
0.786098778248 2889.3918457 -0.000457444752101 1.13368523121 0.850778273766 3.54054349448e-05 0.564478741067
0.788004934788 2883.08422852 -0.000457844027551 1.13648211956 0.85023671815 3.66238046735e-05 0.566303747592
0.790043354034 2876.42993164 -0.000458359514596 1.13943648338 0.849673276923 3.78976050649e-05 0.568232911681
0.792011857033 2870.09326172 -0.000458780734334 1.14225077629 0.849134342835 3.90860781488e-05 0.570073308018
0.794093430042 2863.48852539 -0.00045929645421 1.14518868923 0.848583269164 4.03001016064e-05 0.571995417273
0.796041369438 2857.39648438 -0.000459736736957 1.14789962769 0.848126349444 4.13871161466e-05 0.573771298194
0.798047304153 2851.21289062 -0.000460184877738 1.15065526962 0.847634093306 4.24477931323e-05 0.575575598808
0.800062716007 2845.09179688 -0.000460628303699 1.15338432789 0.847097666599 4.34628123226e-05 0.577364302644
0.802012741566 2839.25683594 -0.00046104597277 1.1559895277 0.846583923303 4.43783049426e-05 0.579070667912
0.804116845131 2833.05712891 -0.000461492832983 1.15875840187 0.846050972943 4.53039413464e-05 0.580886986211
0.806114733219 2827.26269531 -0.000461915216874 1.16134822369 0.84560020795 4.61074868652e-05 0.582587677573
0.808010995388 2821.84643555 -0.000462307740236 1.16377198696 0.845168649696 4.6811304771e-05 0.584179921145
0.810144841671 2815.84838867 -0.00046274124179 1.16645920277 0.844639061527 4.75189596263e-05 0.585945163735
0.812344908714 2809.77124023 -0.000463184900582 1.16918325424 0.844105084595 4.81530188241e-05 0.587734415961
0.814042508602 2805.15649414 -0.000463523087092 1.1712526083 0.843752747647 4.85861175481e-05 0.589096423403
0.816348016262 2798.9921875 -0.000463965407107 1.17401993275 0.843256842481 4.90802086815e-05 0.590917849879
0.818167507648 2794.21142578 -0.000464310316602 1.17616784573 0.842801402682 4.93802224196e-05 0.592328785328
0.820179283619 2789.01123047 -0.000464698008727 1.1785056591 0.84234049143 4.96538755218e-05 0.593870512297
0.822053790092 2784.24707031 -0.000465044024168 1.1806473732 0.842006733945 4.98381048235e-05 0.59528534639
0.824083507061 2779.17626953 -0.000465406716103 1.18293142319 0.841528610069 4.99558756638e-05 0.596792652709
0.826176226139 2774.04370117 -0.000465778721264 1.18524384499 0.841064335593 4.99818266405e-05 0.598318618955
0.828093767166 2769.42553711 -0.00046611414291 1.18732392788 0.840742945293 4.99428017533e-05 0.599694694875
0.830014586449 2764.88061523 -0.00046643888345 1.18937492371 0.840300271155 4.982770057e-05 0.601049755011
0.832067549229 2760.11254883 -0.000466787518235 1.19152641296 0.839874467181 4.96269297956e-05 0.602472573665
0.834012389183 2755.68066406 -0.000467110919999 1.19352805614 0.839548516804 4.93674638311e-05 0.60379593624
0.836104393005 2751.00537109 -0.000467459583888 1.19564127922 0.839100598593 4.90068178739e-05 0.605191411314
0.838124454021 2746.58081055 -0.000467782258056 1.19764173031 0.838752705034 4.8591372907e-05 0.606513116597
